time,temperature,kinetic_energy
0,300,177.309
1,300.055,177.342
2,300.186,177.419
3,300.349,177.515
4,300.538,177.627
5,300.767,177.762
6,301.03,177.918
7,301.306,178.081
8,301.637,178.276
9,302.003,178.493
10,302.364,178.706
11,302.802,178.965
12,303.276,179.245
13,303.722,179.509
14,304.271,179.834
15,304.859,180.181
16,305.388,180.493
17,306.053,180.887
18,306.758,181.303
19,307.369,181.664
20,308.156,182.129
21,308.984,182.619
22,309.674,183.027
23,310.586,183.565
24,311.539,184.129
25,312.302,184.58
26,313.337,185.192
27,314.412,185.827
28,315.237,186.314
29,316.386,186.994
30,317.569,187.693
31,318.429,188.201
32,319.666,188.932
33,320.923,189.675
34,321.773,190.177
35,323.046,190.93
36,324.312,191.678
37,325.073,192.128
38,326.289,192.847
39,327.457,193.537
40,328.011,193.864
41,329.032,194.468
42,329.954,195.013
43,330.159,195.134
44,330.836,195.534
45,331.377,195.854
46,331.157,195.723
47,331.443,195.893
48,331.635,196.006
49,331.142,195.715
50,331.283,195.798
51,331.489,195.92
52,331.197,195.747
53,331.725,196.059
54,332.484,196.508
55,332.839,196.718
56,334.077,197.449
57,335.507,198.295
58,336.353,198.795
59,337.967,199.749
60,339.567,200.694
61,340.299,201.127
62,341.71,201.961
63,342.988,202.716
64,343.266,202.88
65,344.275,203.477
66,345.166,204.004
67,345.042,203.93
68,345.71,204.325
69,346.258,204.649
70,345.747,204.347
71,346.015,204.505
72,346.136,204.577
73,345.208,204.028
74,345.117,203.975
75,345.016,203.915
76,344.103,203.375
77,344.294,203.488
78,344.809,203.793
79,344.855,203.82
80,346.299,204.673
81,348.269,205.838
82,349.76,206.719
83,352.622,208.41
84,355.751,210.26
85,357.859,211.506
86,361.014,213.37
87,363.932,215.095
88,365.182,215.834
89,367.221,217.039
90,368.689,217.906
91,368.167,217.598
92,368.396,217.733
93,368.025,217.514
94,365.745,216.166
95,364.346,215.339
96,362.567,214.288
97,359.277,212.344
98,357.095,211.054
99,354.905,209.759
100,351.746,207.893
101,349.924,206.815
102,348.446,205.942
103,346.428,204.75
104,345.859,204.413
105,345.804,204.38
106,345.355,204.115
107,346.332,204.693
108,347.785,205.551
109,348.699,206.092
110,350.92,207.404
111,353.403,208.872
112,354.977,209.802
113,357.688,211.404
114,360.368,212.988
115,361.712,213.782
116,364.069,215.175
117,366.166,216.415
118,366.627,216.688
119,368.077,217.545
120,369.173,218.192
121,368.522,217.808
122,368.899,218.03
123,368.929,218.048
124,367.248,217.054
125,366.623,216.685
126,365.691,216.134
127,363.154,214.635
128,361.639,213.74
129,359.845,212.679
130,356.594,210.758
131,354.291,209.397
132,351.786,207.916
133,348.119,205.749
134,345.451,204.172
135,342.882,202.653
136,339.718,200.784
137,337.827,199.666
138,336.495,198.879
139,335.09,198.048
140,335.094,198.051
141,335.735,198.43
142,336.189,198.698
143,337.742,199.616
144,339.526,200.67
145,340.608,201.31
146,342.476,202.413
147,344.279,203.479
148,345.113,203.972
149,346.771,204.952
150,348.402,205.916
151,349.072,206.312
152,350.755,207.307
153,352.501,208.338
154,353.251,208.782
155,355.095,209.872
156,356.949,210.967
157,357.629,211.369
158,359.38,212.404
159,361.025,213.376
160,361.309,213.544
161,362.658,214.342
162,363.837,215.038
163,363.559,214.874
164,364.382,215.361
165,365.032,215.745
166,364.213,215.261
167,364.536,215.452
168,364.713,215.556
169,363.462,214.817
170,363.385,214.771
171,363.205,214.665
172,361.68,213.764
173,361.357,213.573
174,360.995,213.359
175,359.401,212.417
176,359.033,212.199
177,358.693,211.999
178,357.223,211.13
179,356.976,210.984
180,356.781,210.868
181,355.497,210.11
182,355.385,210.043
183,355.297,209.991
184,354.117,209.293
185,354.045,209.251
186,353.975,209.21
187,352.828,208.532
188,352.769,208.497
189,352.729,208.473
190,351.662,207.843
191,351.681,207.854
192,351.732,207.884
193,350.776,207.319
194,350.87,207.374
195,350.968,207.433
196,350.044,206.886
197,350.135,206.94
198,350.236,207
199,349.367,206.487
200,349.573,206.608
201,349.89,206.795
202,349.351,206.477
203,349.972,206.844
204,350.753,207.306
205,350.649,207.244
206,351.646,207.833
207,352.674,208.441
208,352.622,208.41
209,353.562,208.966
210,354.423,209.474
211,354.12,209.296
212,354.865,209.736
213,355.614,210.179
214,355.307,209.997
215,356.219,210.536
216,357.276,211.161
217,357.348,211.203
218,358.726,212.018
219,360.236,212.91
220,360.625,213.14
221,362.251,214.101
222,363.841,215.041
223,364.051,215.165
224,365.385,215.954
225,366.522,216.625
226,366.101,216.376
227,366.776,216.776
228,367.226,217.041
229,366.126,216.392
230,366.2,216.435
231,366.145,216.403
232,364.682,215.538
233,364.497,215.429
234,364.308,215.317
235,362.863,214.463
236,362.757,214.4
237,362.728,214.383
238,361.537,213.679
239,361.701,213.776
240,361.974,213.937
241,361.119,213.432
242,361.616,213.726
243,362.221,214.084
244,361.683,213.766
245,362.48,214.237
246,363.353,214.753
247,363.014,214.552
248,363.978,215.122
249,364.952,215.697
250,364.607,215.494
251,365.515,216.03
252,366.344,216.52
253,365.732,216.159
254,366.3,216.494
255,366.682,216.72
256,365.506,216.025
257,365.4,215.962
258,364.997,215.724
259,362.973,214.528
260,361.906,213.897
261,360.498,213.065
262,357.567,211.333
263,355.567,210.151
264,353.361,208.847
265,349.979,206.848
266,347.644,205.468
267,345.397,204.14
268,342.428,202.385
269,340.619,201.316
270,339.114,200.427
271,337.155,199.269
272,336.306,198.767
273,335.777,198.454
274,334.845,197.903
275,334.932,197.955
276,335.325,198.187
277,335.32,198.184
278,336.334,198.783
279,337.652,199.563
280,338.494,200.06
281,340.327,201.143
282,342.339,202.332
283,343.608,203.082
284,345.766,204.358
285,347.908,205.624
286,349.027,206.286
287,351.027,207.467
288,352.941,208.599
289,353.716,209.057
290,355.487,210.104
291,357.206,211.12
292,357.725,211.426
293,359.332,212.376
294,360.862,213.28
295,361.067,213.402
296,362.356,214.164
297,363.481,214.828
298,363.144,214.629
299,363.871,215.058
300,364.387,215.364
301,363.415,214.789
302,363.552,214.87
303,363.546,214.867
304,362.173,214.055
305,362.024,213.967
306,361.88,213.882
307,360.552,213.097
308,360.55,213.096
309,360.66,213.161
310,359.672,212.577
311,360.001,212.771
312,360.406,213.011
313,359.64,212.558
314,360.075,212.815
315,360.459,213.042
316,359.545,212.502
317,359.72,212.605
318,359.757,212.627
319,358.457,211.859
320,358.216,211.716
321,357.862,211.507
322,356.273,210.568
323,355.804,210.291
324,355.351,210.023
325,353.866,209.146
326,353.618,208.999
327,353.557,208.963
328,352.662,208.434
329,353.111,208.699
330,353.858,209.14
331,353.828,209.123
332,355.166,209.914
333,356.762,210.857
334,357.427,211.25
335,359.376,212.402
336,361.403,213.6
337,362.202,214.072
338,364.167,215.234
339,366.005,216.32
340,366.336,216.516
341,367.763,217.359
342,368.933,218.05
343,368.445,217.762
344,369.054,218.122
345,369.387,218.319
346,368.078,217.545
347,367.936,217.461
348,367.627,217.279
349,365.867,216.238
350,365.435,215.983
351,365.073,215.769
352,363.573,214.883
353,363.625,214.913
354,364.001,215.136
355,363.469,214.821
356,364.603,215.491
357,366.1,216.376
358,366.57,216.654
359,368.57,217.836
360,370.66,219.071
361,371.293,219.446
362,373.182,220.562
363,374.798,221.517
364,374.55,221.37
365,375.367,221.853
366,375.713,222.058
367,374.061,221.081
368,373.448,220.719
369,372.4,220.1
370,369.536,218.407
371,367.824,217.395
372,365.925,216.273
373,362.647,214.335
374,360.743,213.21
375,359.026,212.195
376,356.441,210.667
377,355.437,210.074
378,354.912,209.763
379,353.805,209.109
380,354.318,209.413
381,355.328,210.01
382,355.671,210.212
383,357.49,211.287
384,359.585,212.525
385,360.658,213.16
386,363.001,214.545
387,365.324,215.917
388,366.225,216.45
389,368.251,217.647
390,370.029,218.698
391,370.099,218.74
392,371.221,219.403
393,371.953,219.835
394,370.821,219.166
395,370.679,219.082
396,370.076,218.726
397,367.618,217.273
398,366.127,216.392
399,364.256,215.286
400,360.808,213.248
401,358.448,211.853
402,356.027,210.423
403,352.58,208.385
404,350.486,207.148
405,348.77,206.133
406,346.574,204.836
407,345.917,204.447
408,345.851,204.408
409,345.43,204.16
410,346.415,204.741
411,347.778,205.547
412,348.433,205.934
413,350.168,206.96
414,351.912,207.991
415,352.533,208.357
416,354.048,209.253
417,355.38,210.04
418,355.401,210.053
419,356.325,210.599
420,357.048,211.026
421,356.432,210.662
422,356.768,210.861
423,356.922,210.951
424,355.761,210.266
425,355.572,210.154
426,355.228,209.95
427,353.64,209.012
428,353.028,208.65
429,352.301,208.221
430,350.425,207.112
431,349.486,206.557
432,348.435,205.936
433,346.292,204.669
434,344.97,203.887
435,343.483,203.009
436,340.951,201.512
437,339.101,200.419
438,337.072,199.22
439,334.146,197.49
440,331.828,196.12
441,329.414,194.694
442,326.362,192.89
443,323.885,191.426
444,321.454,189.989
445,318.708,188.366
446,316.591,187.115
447,314.783,186.046
448,313.109,185.057
449,312.273,184.563
450,312.07,184.443
451,312.305,184.582
452,313.451,185.259
453,315.204,186.295
454,317.152,187.447
455,319.776,188.997
456,322.632,190.685
457,325.135,192.164
458,328.084,193.908
459,330.937,195.594
460,333.003,196.815
461,335.48,198.279
462,337.717,199.601
463,338.939,200.323
464,340.652,201.335
465,342.099,202.191
466,342.437,202.39
467,343.358,202.935
468,344.023,203.328
469,343.555,203.051
470,343.717,203.147
471,343.632,203.097
472,342.427,202.385
473,341.847,202.042
474,341.023,201.555
475,339.142,200.443
476,337.852,199.681
477,336.354,198.795
478,333.952,197.376
479,332.132,196.3
480,330.216,195.168
481,327.657,193.655
482,325.712,192.505
483,323.827,191.391
484,321.564,190.054
485,319.888,189.063
486,318.315,188.134
487,316.449,187.031
488,314.976,186.16
489,313.483,185.278
490,311.669,184.206
491,310.072,183.262
492,308.466,182.313
493,306.776,181.314
494,305.468,180.541
495,304.52,179.981
496,303.972,179.657
497,304.089,179.726
498,304.799,180.145
499,305.955,180.829
500,307.646,181.828
501,309.638,183.006
502,311.598,184.164
503,313.786,185.457
504,315.907,186.711
505,317.569,187.693
506,319.364,188.754
507,320.948,189.69
508,321.894,190.249
509,323.049,190.932
510,324.012,191.501
511,324.328,191.688
512,324.993,192.081
513,325.563,192.417
514,325.562,192.417
515,326.047,192.704
516,326.536,192.993
517,326.52,192.983
518,327.072,193.309
519,327.664,193.659
520,327.736,193.702
521,328.38,194.083
522,329.021,194.461
523,329.053,194.48
524,329.61,194.81
525,330.088,195.092
526,329.862,194.958
527,330.12,195.111
528,330.255,195.19
529,329.66,194.839
530,329.553,194.776
531,329.345,194.653
532,328.47,194.136
533,328.127,193.933
534,327.757,193.714
535,326.834,193.169
536,326.497,192.97
537,326.222,192.807
538,325.513,192.388
539,325.444,192.347
540,325.515,192.389
541,325.236,192.224
542,325.637,192.461
543,326.213,192.801
544,326.43,192.93
545,327.323,193.458
546,328.343,194.061
547,328.891,194.384
548,330.07,195.081
549,331.279,195.796
550,331.861,196.14
551,333.043,196.838
552,334.176,197.508
553,334.557,197.733
554,335.542,198.315
555,336.437,198.844
556,336.506,198.885
557,337.202,199.296
558,337.795,199.647
559,337.53,199.49
560,337.919,199.72
561,338.212,199.894
562,337.65,199.561
563,337.767,199.63
564,337.806,199.653
565,337.018,199.188
566,336.922,199.131
567,336.769,199.04
568,335.828,198.484
569,335.578,198.337
570,335.293,198.168
571,334.282,197.571
572,333.974,197.389
573,333.69,197.221
574,332.79,196.689
575,332.661,196.613
576,332.674,196.62
577,332.223,196.354
578,332.66,196.612
579,333.369,197.031
580,333.706,197.23
581,335.016,198.004
582,336.617,198.951
583,337.739,199.614
584,339.798,200.831
585,341.99,202.126
586,343.39,202.954
587,345.603,204.262
588,347.712,205.508
589,348.69,206.086
590,350.4,207.097
591,351.852,207.955
592,351.987,208.035
593,352.88,208.563
594,353.503,208.931
595,352.803,208.517
596,352.944,208.6
597,352.883,208.565
598,351.594,207.802
599,351.219,207.581
600,350.736,207.295
601,349.169,206.37
602,348.588,206.026
603,348.029,205.696
604,346.587,204.843
605,346.232,204.634
606,346.057,204.53
607,345.176,204.01
608,345.451,204.172
609,345.958,204.471
610,345.747,204.347
611,346.611,204.857
612,347.563,205.42
613,347.577,205.428
614,348.484,205.965
615,349.267,206.427
616,348.886,206.202
617,349.277,206.433
618,349.427,206.522
619,348.332,205.875
620,347.954,205.651
621,347.288,205.258
622,345.375,204.127
623,344.088,203.366
624,342.481,202.417
625,339.733,200.792
626,337.59,199.526
627,335.306,198.176
628,332.315,196.408
629,330.188,195.151
630,328.396,194.092
631,326.541,192.996
632,325.894,192.613
633,325.992,192.671
634,326.385,192.903
635,328.154,193.949
636,330.797,195.511
637,333.684,197.218
638,338.014,199.776
639,343.081,202.771
640,347.867,205.6
641,353.926,209.181
642,360.159,212.865
643,365.095,215.782
644,370.932,219.232
645,376.25,222.375
646,379.345,224.204
647,383.182,226.472
648,386.172,228.239
649,386.565,228.471
650,387.841,229.226
651,388.319,229.508
652,386.296,228.312
653,385.372,227.766
654,383.863,226.874
655,380.182,224.699
656,377.751,223.262
657,374.986,221.628
658,370.485,218.968
659,367.315,217.094
660,364.073,215.178
661,359.58,212.522
662,356.468,210.683
663,353.552,208.96
664,349.859,206.777
665,347.597,205.44
666,345.772,204.362
667,343.531,203.037
668,342.732,202.565
669,342.47,202.41
670,341.873,202.057
671,342.584,202.478
672,343.675,203.122
673,344.166,203.413
674,345.697,204.317
675,347.278,205.252
676,347.85,205.59
677,349.213,206.395
678,350.344,207.064
679,350.174,206.964
680,350.686,207.266
681,350.856,207.367
682,349.677,206.67
683,349.207,206.392
684,348.474,205.959
685,346.573,204.835
686,345.508,204.206
687,344.389,203.544
688,342.406,202.372
689,341.397,201.776
690,340.533,201.265
691,339.039,200.383
692,338.549,200.093
693,338.248,199.914
694,337.348,199.383
695,337.344,199.38
696,337.434,199.434
697,336.832,199.078
698,337.005,199.18
699,337.182,199.284
700,336.608,198.946
701,336.77,199.041
702,336.926,199.134
703,336.346,198.791
704,336.512,198.889
705,336.687,198.992
706,336.133,198.664
707,336.303,198.765
708,336.447,198.85
709,335.812,198.475
710,335.831,198.486
711,335.753,198.44
712,334.849,197.906
713,334.541,197.724
714,334.117,197.473
715,332.914,196.762
716,332.318,196.41
717,331.681,196.034
718,330.407,195.281
719,329.795,194.919
720,329.235,194.588
721,328.157,193.951
722,327.72,193.692
723,327.314,193.452
724,326.35,192.883
725,325.864,192.596
726,325.251,192.233
727,323.954,191.467
728,322.941,190.868
729,321.694,190.131
730,319.796,189.009
731,318.159,188.042
732,316.431,187.02
733,314.392,185.815
734,312.821,184.886
735,311.523,184.12
736,310.396,183.453
737,310.004,183.222
738,310.195,183.334
739,310.804,183.694
740,312.241,184.544
741,314.271,185.744
742,316.544,187.087
743,319.553,188.865
744,322.918,190.854
745,326.079,192.722
746,329.861,194.958
747,333.713,197.235
748,336.869,199.099
749,340.61,201.311
750,344.194,203.429
751,346.671,204.893
752,349.773,206.726
753,352.572,208.381
754,353.98,209.213
755,356.085,210.457
756,357.82,211.482
757,358.018,211.599
758,358.999,212.179
759,359.616,212.544
760,358.699,212.002
761,358.663,211.98
762,358.358,211.801
763,356.675,210.805
764,356.005,210.41
765,355.256,209.967
766,353.4,208.87
767,352.721,208.468
768,352.182,208.15
769,350.795,207.331
770,350.674,207.259
771,350.775,207.319
772,350.044,206.886
773,350.438,207.119
774,350.835,207.354
775,350.087,206.912
776,350.087,206.912
777,349.685,206.674
778,347.78,205.548
779,346.291,204.669
780,344.222,203.445
781,340.753,201.395
782,337.769,199.632
783,334.563,197.737
784,330.648,195.423
785,327.59,193.615
786,324.862,192.003
787,322.088,190.364
788,320.335,189.328
789,319.157,188.631
790,318.21,188.071
791,318.296,188.122
792,319.068,188.578
793,320.162,189.225
794,322.334,190.509
795,325.148,192.172
796,327.998,193.857
797,331.768,196.085
798,335.803,198.47
799,339.231,200.496
800,343.368,202.941
801,347.391,205.319
802,350.269,207.02
803,353.863,209.144
804,357.185,211.107
805,359.055,212.212
806,361.746,213.803
807,364.077,215.18
808,364.725,215.563
809,366.227,216.451
810,367.274,217.07
811,366.502,216.614
812,366.61,216.678
813,366.277,216.481
814,364.225,215.268
815,363.163,214.64
816,361.843,213.86
817,359.114,212.247
818,357.522,211.306
819,355.907,210.351
820,353.217,208.762
821,351.73,207.883
822,350.368,207.078
823,348.155,205.77
824,347.118,205.157
825,346.268,204.655
826,344.69,203.722
827,344.239,203.456
828,343.993,203.31
829,343.065,202.762
830,343.2,202.842
831,343.495,203.016
832,343.043,202.749
833,343.543,203.044
834,344.077,203.36
835,343.709,203.142
836,344.149,203.402
837,344.464,203.588
838,343.718,203.147
839,343.65,203.107
840,343.342,202.925
841,341.91,202.079
842,341.077,201.587
843,339.984,200.941
844,337.854,199.682
845,336.311,198.77
846,334.602,197.76
847,332.093,196.277
848,330.222,195.171
849,328.368,194.075
850,326.034,192.696
851,324.414,191.738
852,322.999,190.902
853,321.375,189.942
854,320.485,189.416
855,319.882,189.06
856,319.161,188.634
857,319.094,188.594
858,319.249,188.686
859,319.203,188.659
860,319.685,188.943
861,320.273,189.291
862,320.535,189.446
863,321.262,189.875
864,322.038,190.334
865,322.416,190.558
866,323.275,191.065
867,324.168,191.593
868,324.595,191.846
869,325.505,192.383
870,326.382,192.902
871,326.664,193.068
872,327.37,193.485
873,327.942,193.824
874,327.8,193.74
875,328.057,193.892
876,328.167,193.956
877,327.595,193.619
878,327.513,193.57
879,327.41,193.509
880,326.789,193.142
881,326.789,193.142
882,326.888,193.2
883,326.551,193.001
884,326.836,193.17
885,327.172,193.368
886,326.97,193.249
887,327.276,193.43
888,327.513,193.57
889,327.115,193.335
890,327.185,193.376
891,327.197,193.383
892,326.645,193.057
893,326.659,193.065
894,326.743,193.115
895,326.397,192.91
896,326.714,193.098
897,327.169,193.367
898,327.208,193.39
899,327.899,193.798
900,328.669,194.253
901,328.909,194.395
902,329.733,194.882
903,330.535,195.356
904,330.675,195.439
905,331.35,195.838
906,331.928,196.179
907,331.748,196.073
908,332.074,196.266
909,332.253,196.371
910,331.63,196.003
911,331.49,195.921
912,331.194,195.746
913,330.132,195.118
914,329.577,194.79
915,328.944,194.416
916,327.704,193.683
917,327.068,193.307
918,326.515,192.98
919,325.57,192.421
920,325.333,192.282
921,325.304,192.264
922,324.986,192.076
923,325.382,192.311
924,325.959,192.651
925,326.149,192.764
926,326.928,193.224
927,327.698,193.679
928,327.813,193.747
929,328.292,194.03
930,328.493,194.149
931,327.782,193.729
932,327.268,193.425
933,326.403,192.914
934,324.739,191.93
935,323.47,191.18
936,322.263,190.467
937,320.899,189.661
938,320.489,189.418
939,320.775,189.588
940,321.451,189.987
941,323.364,191.118
942,326.006,192.679
943,328.675,194.257
944,332.185,196.331
945,335.763,198.446
946,338.456,200.037
947,341.517,201.847
948,344.098,203.372
949,345.237,204.045
950,346.683,204.9
951,347.567,205.423
952,346.986,205.079
953,346.908,205.033
954,346.462,204.769
955,344.805,203.79
956,343.877,203.241
957,342.833,202.625
958,340.899,201.481
959,339.85,200.862
960,338.892,200.295
961,337.295,199.352
962,336.648,198.969
963,336.197,198.703
964,335.232,198.132
965,335.2,198.113
966,335.372,198.215
967,335.027,198.011
968,335.56,198.326
969,336.242,198.729
970,336.32,198.775
971,337.219,199.307
972,338.187,199.879
973,338.432,200.024
974,339.462,200.632
975,340.492,201.241
976,340.693,201.36
977,341.675,201.94
978,342.618,202.497
979,342.66,202.522
980,343.502,203.02
981,344.284,203.482
982,344.108,203.378
983,344.734,203.748
984,345.256,204.057
985,344.746,203.755
986,344.988,203.898
987,345.046,203.933
988,343.993,203.31
989,343.603,203.08
990,342.959,202.699
991,341.198,201.658
992,340.04,200.974
993,338.65,200.153
994,336.298,198.762
995,334.573,197.743
996,332.77,196.677
997,330.306,195.221
998,328.558,194.188
999,326.943,193.233
